# 5 301
# Pressure, Quantity1, [Quantity2]
# column * scaling factor should be SI units
# scaling factors (constant) for each column given on line below
# 5.569262893282327e+10 2.993025100070677e+03
0.000000000000000e+00 5.858259274971607e-01 
8.977848767080155e-03 5.959653480774854e-01 
1.795569753416031e-02 6.062563440203976e-01 
2.693354630124047e-02 6.164865888524333e-01 
3.591139506832062e-02 6.265568655964155e-01 
4.488924383540078e-02 6.364167675605918e-01 
5.386709260248093e-02 6.460403720254494e-01 
6.284494136956109e-02 6.554152249763063e-01 
7.182279013664124e-02 6.645367334902142e-01 
8.080063890372140e-02 6.734050668192724e-01 
8.977848767080156e-02 6.820233379693464e-01 
9.875633643788170e-02 6.903964877000670e-01 
1.077341852049619e-01 6.985305760553918e-01 
1.167120339720420e-01 7.064323211067683e-01 
1.256898827391222e-01 7.141087931432912e-01 
1.346677315062023e-01 7.215672095048739e-01 
1.436455802732825e-01 7.288147961480483e-01 
1.526234290403626e-01 7.358586943258365e-01 
1.616012778074428e-01 7.427058982453510e-01 
1.705791265745230e-01 7.493632142572438e-01 
1.795569753416031e-01 7.558372351474548e-01 
1.885348241086832e-01 7.621343250852006e-01 
1.975126728757634e-01 7.682606121111587e-01 
2.064905216428436e-01 7.742219859571180e-01 
2.154683704099237e-01 7.800240996167686e-01 
2.244462191770039e-01 7.856723735282748e-01 
2.334240679440840e-01 7.911720015426376e-01 
2.424019167111642e-01 7.965279580764191e-01 
2.513797654782444e-01 8.017450060102043e-01 
2.603576142453245e-01 8.068277050128269e-01 
2.693354630124046e-01 8.117804200585473e-01 
2.783133117794848e-01 8.166073299687272e-01 
2.872911605465649e-01 8.213124358572517e-01 
2.962690093136451e-01 8.258995693944287e-01 
3.052468580807253e-01 8.303724008305415e-01 
3.142247068478055e-01 8.347344467399305e-01 
3.232025556148856e-01 8.389890774611573e-01 
3.321804043819657e-01 8.431395242197061e-01 
3.411582531490459e-01 8.471888859277157e-01 
3.501361019161260e-01 8.511401356611440e-01 
3.591139506832062e-01 8.549961268190294e-01 
3.680917994502864e-01 8.587595989725553e-01 
3.770696482173665e-01 8.624331834137282e-01 
3.860474969844467e-01 8.660194084148722e-01 
3.950253457515268e-01 8.695207042110150e-01 
4.040031945186070e-01 8.729394077177011e-01 
4.129810432856871e-01 8.762777669969383e-01 
4.219588920527673e-01 8.795379454839327e-01 
4.309367408198475e-01 8.827220259870506e-01 
4.399145895869276e-01 8.858320144731201e-01 
4.488924383540078e-01 8.888698436497845e-01 
4.578702871210879e-01 8.918373763561503e-01 
4.668481358881681e-01 8.947364087724931e-01 
4.758259846552482e-01 8.975686734592523e-01 
4.848038334223284e-01 9.003358422351062e-01 
4.937816821894085e-01 9.030395289032310e-01 
5.027595309564887e-01 9.056812918346223e-01 
5.117373797235688e-01 9.082626364165998e-01 
5.207152284906490e-01 9.107850173743042e-01 
5.296930772577292e-01 9.132498409725028e-01 
5.386709260248093e-01 9.156584671045788e-01 
5.476487747918894e-01 9.180122112751883e-01 
5.566266235589696e-01 9.203123464826665e-01 
5.656044723260498e-01 9.225601050069105e-01 
5.745823210931299e-01 9.247566801081043e-01 
5.835601698602101e-01 9.269032276413396e-01 
5.925380186272903e-01 9.290008675918719e-01 
6.015158673943704e-01 9.310506855354634e-01 
6.104937161614505e-01 9.330537340279923e-01 
6.194715649285307e-01 9.350110339282558e-01 
6.284494136956109e-01 9.369235756576572e-01 
6.374272624626910e-01 9.387923204002383e-01 
6.464051112297712e-01 9.406182012463132e-01 
6.553829599968514e-01 9.424021242827668e-01 
6.643608087639314e-01 9.441449696328881e-01 
6.733386575310116e-01 9.458475924484443e-01 
6.823165062980918e-01 9.475108238565412e-01 
6.912943550651720e-01 9.491354718636577e-01 
7.002722038322521e-01 9.507223222191070e-01 
7.092500525993323e-01 9.522721392400459e-01 
7.182279013664125e-01 9.537856666000218e-01 
7.272057501334925e-01 9.552636280829426e-01 
7.361835989005727e-01 9.567067283042332e-01 
7.451614476676529e-01 9.581156534008568e-01 
7.541392964347330e-01 9.594910716917615e-01 
7.631171452018132e-01 9.608336343102488e-01 
7.720949939688934e-01 9.621439758096555e-01 
7.810728427359735e-01 9.634227147436721e-01 
7.900506915030536e-01 9.646704542225493e-01 
7.990285402701338e-01 9.658877824463634e-01 
8.080063890372140e-01 9.670752732164606e-01 
8.169842378042941e-01 9.682334864261282e-01 
8.259620865713743e-01 9.693629685314888e-01 
8.349399353384545e-01 9.704642530035575e-01 
8.439177841055346e-01 9.715378607623509e-01 
8.528956328726147e-01 9.725843005938952e-01 
8.618734816396949e-01 9.736040695509245e-01 
8.708513304067751e-01 9.745976533380262e-01 
8.798291791738552e-01 9.755655266819535e-01 
8.888070279409354e-01 9.765081536877769e-01 
8.977848767080155e-01 9.774259881815205e-01 
9.067627254750957e-01 9.783194740398933e-01 
9.157405742421758e-01 9.791890455076807e-01 
9.247184230092560e-01 9.800351275034137e-01 
9.336962717763362e-01 9.808581359136637e-01 
9.426741205434163e-01 9.816584778766962e-01 
9.516519693104964e-01 9.824365520557657e-01 
9.606298180775766e-01 9.831927489025774e-01 
9.696076668446567e-01 9.839274509113273e-01 
9.785855156117369e-01 9.846410328637202e-01 
9.875633643788171e-01 9.853338620653550e-01 
9.965412131458973e-01 9.860062985738363e-01 
1.005519061912977e+00 9.866586954189651e-01 
1.014496910680058e+00 9.872913988153330e-01 
1.023474759447138e+00 9.879047483676409e-01 
1.032452608214218e+00 9.884990772690383e-01 
1.041430456981298e+00 9.890747124927675e-01 
1.050408305748378e+00 9.896319749773912e-01 
1.059386154515458e+00 9.901711798058543e-01 
1.068364003282539e+00 9.906926363786321e-01 
1.077341852049619e+00 9.911966485812027e-01 
1.086319700816699e+00 9.916835149460619e-01 
1.095297549583779e+00 9.921535288095028e-01 
1.104275398350859e+00 9.926069784633590e-01 
1.113253247117939e+00 9.930441473019095e-01 
1.122231095885019e+00 9.934653139641342e-01 
1.131208944652100e+00 9.938707524714919e-01 
1.140186793419180e+00 9.942607323614004e-01 
1.149164642186260e+00 9.946355188165714e-01 
1.158142490953340e+00 9.949953727903654e-01 
1.167120339720420e+00 9.953405511283059e-01 
1.176098188487500e+00 9.956713066859056e-01 
1.185076037254581e+00 9.959878884429302e-01 
1.194053886021661e+00 9.962905416142377e-01 
1.203031734788741e+00 9.965795077573137e-01 
1.212009583555821e+00 9.968550248766233e-01 
1.220987432322901e+00 9.971173275248908e-01 
1.229965281089981e+00 9.973666469014247e-01 
1.238943129857061e+00 9.976032109475798e-01 
1.247920978624142e+00 9.978272444394659e-01 
1.256898827391222e+00 9.980389690779992e-01 
1.265876676158302e+00 9.982386035763801e-01 
1.274854524925382e+00 9.984263637450936e-01 
1.283832373692462e+00 9.986024625745145e-01 
1.292810222459542e+00 9.987671103151942e-01 
1.301788071226623e+00 9.989205145559124e-01 
1.310765919993703e+00 9.990628802995630e-01 
1.319743768760783e+00 9.991944100369499e-01 
1.328721617527863e+00 9.993153038185569e-01 
1.337699466294943e+00 9.994257593243587e-01 
1.346677315062023e+00 9.995259719317372e-01 
1.355655163829103e+00 9.996161347815619e-01 
1.364633012596184e+00 9.996964388424908e-01 
1.373610861363264e+00 9.997670729735507e-01 
1.382588710130344e+00 9.998282239850483e-01 
1.391566558897424e+00 9.998800766978596e-01 
1.400544407664504e+00 9.999228140011557e-01 
1.409522256431584e+00 9.999566169085913e-01 
1.418500105198665e+00 9.999816646130698e-01 
1.427477953965745e+00 9.999981345399667e-01 
1.436455802732825e+00 1.000006202399074e+00 
1.445433651499905e+00 1.000006042235131e+00 
1.454411500266985e+00 9.999978264770565e-01 
1.463389349034065e+00 9.999817259859010e-01 
1.472367197801145e+00 9.999579101015573e-01 
1.481345046568226e+00 9.999265466882644e-01 
1.490322895335306e+00 9.998878021789332e-01 
1.499300744102386e+00 9.998418416183320e-01 
1.508278592869466e+00 9.997888287051506e-01 
1.517256441636546e+00 9.997289258329879e-01 
1.526234290403626e+00 9.996622941302723e-01 
1.535212139170707e+00 9.995890934991566e-01 
1.544189987937787e+00 9.995094826534048e-01 
1.553167836704867e+00 9.994236191552962e-01 
1.562145685471947e+00 9.993316594515735e-01 
1.571123534239027e+00 9.992337589084521e-01 
1.580101383006107e+00 9.991300718457189e-01 
1.589079231773187e+00 9.990207515699334e-01 
1.598057080540268e+00 9.989059504067588e-01 
1.607034929307348e+00 9.987858197324355e-01 
1.616012778074428e+00 9.986605100044217e-01 
1.624990626841508e+00 9.985301707912103e-01 
1.633968475608588e+00 9.983949508013488e-01 
1.642946324375668e+00 9.982549979116693e-01 
1.651924173142749e+00 9.981104591947516e-01 
1.660902021909829e+00 9.979614809456269e-01 
1.669879870676909e+00 9.978082087077410e-01 
1.678857719443989e+00 9.976507872981943e-01 
1.687835568211069e+00 9.974893608322575e-01 
1.696813416978149e+00 9.973240727471944e-01 
1.705791265745229e+00 9.971550658253869e-01 
1.714769114512310e+00 9.969824822167705e-01 
1.723746963279390e+00 9.968064634606836e-01 
1.732724812046470e+00 9.966271505068703e-01 
1.741702660813550e+00 9.964446837360513e-01 
1.750680509580630e+00 9.962592029797305e-01 
1.759658358347710e+00 9.960708475394048e-01 
1.768636207114791e+00 9.958797562051509e-01 
1.777614055881871e+00 9.956860672736024e-01 
1.786591904648951e+00 9.954899185653227e-01 
1.795569753416031e+00 9.952914474415803e-01 
1.804547602183111e+00 9.950907908205383e-01 
1.813525450950191e+00 9.948880851928582e-01 
1.822503299717271e+00 9.946834666367333e-01 
1.831481148484352e+00 9.944770708323466e-01 
1.840458997251432e+00 9.942690330757756e-01 
1.849436846018512e+00 9.940594882923302e-01 
1.858414694785592e+00 9.938485710493475e-01 
1.867392543552672e+00 9.936364155684373e-01 
1.876370392319752e+00 9.934231557371846e-01 
1.885348241086833e+00 9.932089251203232e-01 
1.894326089853913e+00 9.929938569703698e-01 
1.903303938620993e+00 9.927780842377382e-01 
1.912281787388073e+00 9.925617395803276e-01 
1.921259636155153e+00 9.923449553725937e-01 
1.930237484922233e+00 9.921278637141039e-01 
1.939215333689313e+00 9.919105964376240e-01 
1.948193182456394e+00 9.916932851165314e-01 
1.957171031223474e+00 9.914760610720109e-01 
1.966148879990554e+00 9.912590553794991e-01 
1.975126728757634e+00 9.910423988747432e-01 
1.984104577524714e+00 9.908262221593476e-01 
1.993082426291795e+00 9.906106556058292e-01 
2.002060275058875e+00 9.903958293621872e-01 
2.011038123825955e+00 9.901818733559842e-01 
2.020015972593035e+00 9.899689172979500e-01 
2.028993821360115e+00 9.897570906851039e-01 
2.037971670127195e+00 9.895465228034018e-01 
2.046949518894275e+00 9.893373427299097e-01 
2.055927367661356e+00 9.891296793345049e-01 
2.064905216428436e+00 9.889236612811115e-01 
2.073883065195516e+00 9.887194170284680e-01 
2.082860913962596e+00 9.885170748304319e-01 
2.091838762729676e+00 9.883167627358269e-01 
2.100816611496756e+00 9.881186085878262e-01 
2.109794460263836e+00 9.879227400228870e-01 
2.118772309030917e+00 9.877292844692274e-01 
2.127750157797997e+00 9.875383691448554e-01 
2.136728006565077e+00 9.873501210551515e-01 
2.145705855332157e+00 9.871646669900036e-01 
2.154683704099237e+00 9.869821335205015e-01 
2.163661552866317e+00 9.868026469951946e-01 
2.172639401633397e+00 9.866263335359097e-01 
2.181617250400478e+00 9.864533190331382e-01 
2.190595099167558e+00 9.862837291409923e-01 
2.199572947934638e+00 9.861176892717333e-01 
2.208550796701718e+00 9.859553245898781e-01 
2.217528645468798e+00 9.857967600058850e-01 
2.226506494235879e+00 9.856421201694203e-01 
2.235484343002959e+00 9.854915294622126e-01 
2.244462191770039e+00 9.853451119905002e-01 
2.253440040537119e+00 9.852029915770674e-01 
2.262417889304199e+00 9.850652917528816e-01 
2.271395738071279e+00 9.849321357483342e-01 
2.280373586838359e+00 9.848036464840816e-01 
2.289351435605440e+00 9.846799465615036e-01 
2.298329284372520e+00 9.845611582527721e-01 
2.307307133139600e+00 9.844474034905403e-01 
2.316284981906680e+00 9.843388038572582e-01 
2.325262830673760e+00 9.842354805741141e-01 
2.334240679440840e+00 9.841375544896136e-01 
2.343218528207920e+00 9.840451460677739e-01 
2.352196376975001e+00 9.839583753760700e-01 
2.361174225742081e+00 9.838773620728284e-01 
2.370152074509161e+00 9.838022253944746e-01 
2.379129923276241e+00 9.837330841423442e-01 
2.388107772043321e+00 9.836700566691878e-01 
2.397085620810401e+00 9.836132608653433e-01 
2.406063469577481e+00 9.835628141445989e-01 
2.415041318344562e+00 9.835188334297359e-01 
2.424019167111642e+00 9.834814351377744e-01 
2.432997015878722e+00 9.834507351649143e-01 
2.441974864645802e+00 9.834268488711970e-01 
2.450952713412883e+00 9.834098910648719e-01 
2.459930562179963e+00 9.833999759864976e-01 
2.468908410947042e+00 9.833972172927776e-01 
2.477886259714123e+00 9.834017280401270e-01 
2.486864108481203e+00 9.834136206680025e-01 
2.495841957248283e+00 9.834330069819818e-01 
2.504819806015363e+00 9.834599981366151e-01 
2.513797654782444e+00 9.834947046180511e-01 
2.522775503549524e+00 9.835372362264507e-01 
2.531753352316604e+00 9.835877020581938e-01 
2.540731201083684e+00 9.836462104878919e-01 
2.549709049850764e+00 9.837128691502154e-01 
2.558686898617844e+00 9.837877849215452e-01 
2.567664747384924e+00 9.838710639014614e-01 
2.576642596152005e+00 9.839628113940722e-01 
2.585620444919085e+00 9.840631318892035e-01 
2.594598293686165e+00 9.841721290434521e-01 
2.603576142453245e+00 9.842899056611192e-01 
2.612553991220325e+00 9.844165636750298e-01 
2.621531839987405e+00 9.845522041272521e-01 
2.630509688754485e+00 9.846969271497308e-01 
2.639487537521566e+00 9.848508319448405e-01 
2.648465386288646e+00 9.850140167658755e-01 
2.657443235055726e+00 9.851865788974848e-01 
2.666421083822806e+00 9.853686146360677e-01 
2.675398932589886e+00 9.855602192701367e-01 
2.684376781356967e+00 9.857614870606672e-01 
2.693354630124047e+00 9.859725112214403e-01 
