# 5 301
# Pressure, Quantity1, [Quantity2]
# column * scaling factor should be SI units
# scaling factors (constant) for each column given on line below
# 5.569262893282327e+10 2.993025100070677e+03
0.000000000000000e+00 5.362080559203206e-01 
8.977848767080155e-03 5.415242324574788e-01 
1.795569753416031e-02 5.466571600238606e-01 
2.693354630124047e-02 5.516159515116734e-01 
3.591139506832062e-02 5.564090696504097e-01 
4.488924383540078e-02 5.610443880804566e-01 
5.386709260248093e-02 5.655292450911903e-01 
6.284494136956109e-02 5.698704909865384e-01 
7.182279013664124e-02 5.740745303456857e-01 
8.080063890372140e-02 5.781473598215081e-01 
8.977848767080156e-02 5.820946020269209e-01 
9.875633643788170e-02 5.859215359823852e-01 
1.077341852049619e-01 5.896331245328259e-01 
1.167120339720420e-01 5.932340390871434e-01 
1.256898827391222e-01 5.967286819866967e-01 
1.346677315062023e-01 6.001212067692553e-01 
1.436455802732825e-01 6.034155365608016e-01 
1.526234290403626e-01 6.066153807983327e-01 
1.616012778074428e-01 6.097242504957628e-01 
1.705791265745230e-01 6.127454722640799e-01 
1.795569753416031e-01 6.156822008615530e-01 
1.885348241086832e-01 6.185374307652929e-01 
1.975126728757634e-01 6.213140068356084e-01 
2.064905216428436e-01 6.240146341059928e-01 
2.154683704099237e-01 6.266418867833491e-01 
2.244462191770039e-01 6.291982165337118e-01 
2.334240679440840e-01 6.316859601205014e-01 
2.424019167111642e-01 6.341073464551543e-01 
2.513797654782444e-01 6.364645031136101e-01 
2.603576142453245e-01 6.387594623665750e-01 
2.693354630124046e-01 6.409941667665333e-01 
2.783133117794848e-01 6.431704743301259e-01 
2.872911605465649e-01 6.452901633506464e-01 
2.962690093136451e-01 6.473549368719793e-01 
3.052468580807253e-01 6.493664268522561e-01 
3.142247068478055e-01 6.513261980427840e-01 
3.232025556148856e-01 6.532357516053863e-01 
3.321804043819657e-01 6.550965284891272e-01 
3.411582531490459e-01 6.569099125854576e-01 
3.501361019161260e-01 6.586772336790808e-01 
3.591139506832062e-01 6.603997702102899e-01 
3.680917994502864e-01 6.620787518631122e-01 
3.770696482173665e-01 6.637153619923585e-01 
3.860474969844467e-01 6.653107399015233e-01 
3.950253457515268e-01 6.668659829824645e-01 
4.040031945186070e-01 6.683821487268710e-01 
4.129810432856871e-01 6.698602566186805e-01 
4.219588920527673e-01 6.713012899158648e-01 
4.309367408198475e-01 6.727061973292969e-01 
4.399145895869276e-01 6.740758946058080e-01 
4.488924383540078e-01 6.754112660219619e-01 
4.578702871210879e-01 6.767131657945689e-01 
4.668481358881681e-01 6.779824194134833e-01 
4.758259846552482e-01 6.792198249018039e-01 
4.848038334223284e-01 6.804261540082146e-01 
4.937816821894085e-01 6.816021533358251e-01 
5.027595309564887e-01 6.827485454115646e-01 
5.117373797235688e-01 6.838660296998772e-01 
5.207152284906490e-01 6.849552835637107e-01 
5.296930772577292e-01 6.860169631756812e-01 
5.386709260248093e-01 6.870517043862103e-01 
5.476487747918894e-01 6.880601235472120e-01 
5.566266235589696e-01 6.890428182945820e-01 
5.656044723260498e-01 6.900003682924520e-01 
5.745823210931299e-01 6.909333359414350e-01 
5.835601698602101e-01 6.918422670529505e-01 
5.925380186272903e-01 6.927276914915761e-01 
6.015158673943704e-01 6.935901237872437e-01 
6.104937161614505e-01 6.944300637189716e-01 
6.194715649285307e-01 6.952479968717203e-01 
6.284494136956109e-01 6.960443951678552e-01 
6.374272624626910e-01 6.968197173746017e-01 
6.464051112297712e-01 6.975744095887909e-01 
6.553829599968514e-01 6.983089057001161e-01 
6.643608087639314e-01 6.990236278340379e-01 
6.733386575310116e-01 6.997189867754113e-01 
6.823165062980918e-01 7.003953823738368e-01 
6.912943550651720e-01 7.010532039316839e-01 
7.002722038322521e-01 7.016928305756670e-01 
7.092500525993323e-01 7.023146316128180e-01 
7.182279013664125e-01 7.029189668716301e-01 
7.272057501334925e-01 7.035061870291185e-01 
7.361835989005727e-01 7.040766339244922e-01 
7.451614476676529e-01 7.046306408600930e-01 
7.541392964347330e-01 7.051685328902173e-01 
7.631171452018132e-01 7.056906270984084e-01 
7.720949939688934e-01 7.061972328637705e-01 
7.810728427359735e-01 7.066886521168164e-01 
7.900506915030536e-01 7.071651795853515e-01 
7.990285402701338e-01 7.076271030308499e-01 
8.080063890372140e-01 7.080747034757652e-01 
8.169842378042941e-01 7.085082554221925e-01 
8.259620865713743e-01 7.089280270622728e-01 
8.349399353384545e-01 7.093342804807116e-01 
8.439177841055346e-01 7.097272718497694e-01 
8.528956328726147e-01 7.101072516170512e-01 
8.618734816396949e-01 7.104744646864208e-01 
8.708513304067751e-01 7.108291505923316e-01 
8.798291791738552e-01 7.111715436678667e-01 
8.888070279409354e-01 7.115018732067563e-01 
8.977848767080155e-01 7.118203636196289e-01 
9.067627254750957e-01 7.121272345847446e-01 
9.157405742421758e-01 7.124227011934362e-01 
9.247184230092560e-01 7.127069740904900e-01 
9.336962717763362e-01 7.129802596096637e-01 
9.426741205434163e-01 7.132427599045517e-01 
9.516519693104964e-01 7.134946730749843e-01 
9.606298180775766e-01 7.137361932891410e-01 
9.696076668446567e-01 7.139675109015534e-01 
9.785855156117369e-01 7.141888125671605e-01 
9.875633643788171e-01 7.144002813515750e-01 
9.965412131458973e-01 7.146020968377078e-01 
1.005519061912977e+00 7.147944352288949e-01 
1.014496910680058e+00 7.149774694486645e-01 
1.023474759447138e+00 7.151513692372746e-01 
1.032452608214218e+00 7.153163012451347e-01 
1.041430456981298e+00 7.154724291232497e-01 
1.050408305748378e+00 7.156199136107804e-01 
1.059386154515458e+00 7.157589126198430e-01 
1.068364003282539e+00 7.158895813176392e-01 
1.077341852049619e+00 7.160120722060251e-01 
1.086319700816699e+00 7.161265351986086e-01 
1.095297549583779e+00 7.162331176954672e-01 
1.104275398350859e+00 7.163319646555731e-01 
1.113253247117939e+00 7.164232186670068e-01 
1.122231095885019e+00 7.165070200150419e-01 
1.131208944652100e+00 7.165835067481724e-01 
1.140186793419180e+00 7.166528147421604e-01 
1.149164642186260e+00 7.167150777621697e-01 
1.158142490953340e+00 7.167704275230554e-01 
1.167120339720420e+00 7.168189937478701e-01 
1.176098188487500e+00 7.168609042246517e-01 
1.185076037254581e+00 7.168962848615499e-01 
1.194053886021661e+00 7.169252597403466e-01 
1.203031734788741e+00 7.169479511684282e-01 
1.212009583555821e+00 7.169644797292580e-01 
1.220987432322901e+00 7.169749643313997e-01 
1.229965281089981e+00 7.169795222561426e-01 
1.238943129857061e+00 7.169782692037685e-01 
1.247920978624142e+00 7.169713193385123e-01 
1.256898827391222e+00 7.169587853322520e-01 
1.265876676158302e+00 7.169407784069711e-01 
1.274854524925382e+00 7.169174083760366e-01 
1.283832373692462e+00 7.168887836843217e-01 
1.292810222459542e+00 7.168550114472181e-01 
1.301788071226623e+00 7.168161974885663e-01 
1.310765919993703e+00 7.167724463775416e-01 
1.319743768760783e+00 7.167238614645255e-01 
1.328721617527863e+00 7.166705449159941e-01 
1.337699466294943e+00 7.166125977484524e-01 
1.346677315062023e+00 7.165501198614449e-01 
1.355655163829103e+00 7.164832100696710e-01 
1.364633012596184e+00 7.164119661342229e-01 
1.373610861363264e+00 7.163364847929876e-01 
1.382588710130344e+00 7.162568617902209e-01 
1.391566558897424e+00 7.161731919053262e-01 
1.400544407664504e+00 7.160855689808604e-01 
1.409522256431584e+00 7.159940859497851e-01 
1.418500105198665e+00 7.158988348619880e-01 
1.427477953965745e+00 7.157999069100912e-01 
1.436455802732825e+00 7.156973924545691e-01 
1.445433651499905e+00 7.155913810481921e-01 
1.454411500266985e+00 7.154819614598154e-01 
1.463389349034065e+00 7.153692216975319e-01 
1.472367197801145e+00 7.152532490312012e-01 
1.481345046568226e+00 7.151341300143781e-01 
1.490322895335306e+00 7.150119505056465e-01 
1.499300744102386e+00 7.148867956893847e-01 
1.508278592869466e+00 7.147587500959682e-01 
1.517256441636546e+00 7.146278976214261e-01 
1.526234290403626e+00 7.144943215465659e-01 
1.535212139170707e+00 7.143581045555806e-01 
1.544189987937787e+00 7.142193287541460e-01 
1.553167836704867e+00 7.140780756870242e-01 
1.562145685471947e+00 7.139344263551838e-01 
1.571123534239027e+00 7.137884612324469e-01 
1.580101383006107e+00 7.136402602816742e-01 
1.589079231773187e+00 7.134899029705011e-01 
1.598057080540268e+00 7.133374682866285e-01 
1.607034929307348e+00 7.131830347526851e-01 
1.616012778074428e+00 7.130266804406654e-01 
1.624990626841508e+00 7.128684829859546e-01 
1.633968475608588e+00 7.127085196009473e-01 
1.642946324375668e+00 7.125468670882700e-01 
1.651924173142749e+00 7.123836018536162e-01 
1.660902021909829e+00 7.122187999181964e-01 
1.669879870676909e+00 7.120525369308177e-01 
1.678857719443989e+00 7.118848881795954e-01 
1.687835568211069e+00 7.117159286033043e-01 
1.696813416978149e+00 7.115457328023765e-01 
1.705791265745229e+00 7.113743750495529e-01 
1.714769114512310e+00 7.112019293001947e-01 
1.723746963279390e+00 7.110284692022559e-01 
1.732724812046470e+00 7.108540681059335e-01 
1.741702660813550e+00 7.106787990729868e-01 
1.750680509580630e+00 7.105027348857431e-01 
1.759658358347710e+00 7.103259480557869e-01 
1.768636207114791e+00 7.101485108323446e-01 
1.777614055881871e+00 7.099704952103600e-01 
1.786591904648951e+00 7.097919729382762e-01 
1.795569753416031e+00 7.096130155255188e-01 
1.804547602183111e+00 7.094336942496908e-01 
1.813525450950191e+00 7.092540801634806e-01 
1.822503299717271e+00 7.090742441012871e-01 
1.831481148484352e+00 7.088942566855666e-01 
1.840458997251432e+00 7.087141883329059e-01 
1.849436846018512e+00 7.085341092598212e-01 
1.858414694785592e+00 7.083540894882929e-01 
1.867392543552672e+00 7.081741988510332e-01 
1.876370392319752e+00 7.079945069964927e-01 
1.885348241086833e+00 7.078150833936100e-01 
1.894326089853913e+00 7.076359973363053e-01 
1.903303938620993e+00 7.074573179477228e-01 
1.912281787388073e+00 7.072791141842205e-01 
1.921259636155153e+00 7.071014548391186e-01 
1.930237484922233e+00 7.069244085461991e-01 
1.939215333689313e+00 7.067480437829666e-01 
1.948193182456394e+00 7.065724288736707e-01 
1.957171031223474e+00 7.063976319920898e-01 
1.966148879990554e+00 7.062237211640823e-01 
1.975126728757634e+00 7.060507642699069e-01 
1.984104577524714e+00 7.058788290463121e-01 
1.993082426291795e+00 7.057079830884007e-01 
2.002060275058875e+00 7.055382938512657e-01 
2.011038123825955e+00 7.053698286514081e-01 
2.020015972593035e+00 7.052026546679304e-01 
2.028993821360115e+00 7.050368389435145e-01 
2.037971670127195e+00 7.048724483851805e-01 
2.046949518894275e+00 7.047095497648322e-01 
2.055927367661356e+00 7.045482097195905e-01 
2.064905216428436e+00 7.043884947519171e-01 
2.073883065195516e+00 7.042304712295279e-01 
2.082860913962596e+00 7.040742053850997e-01 
2.091838762729676e+00 7.039197633157747e-01 
2.100816611496756e+00 7.037672109824606e-01 
2.109794460263836e+00 7.036166142089301e-01 
2.118772309030917e+00 7.034680386807221e-01 
2.127750157797997e+00 7.033215499438457e-01 
2.136728006565077e+00 7.031772134032892e-01 
2.145705855332157e+00 7.030350943213378e-01 
2.154683704099237e+00 7.028952578156963e-01 
2.163661552866317e+00 7.027577688574279e-01 
2.172639401633397e+00 7.026226922687020e-01 
2.181617250400478e+00 7.024900927203596e-01 
2.190595099167558e+00 7.023600347292898e-01 
2.199572947934638e+00 7.022325826556453e-01 
2.208550796701718e+00 7.021078006998430e-01 
2.217528645468798e+00 7.019857528994213e-01 
2.226506494235879e+00 7.018665031257099e-01 
2.235484343002959e+00 7.017501150803245e-01 
2.244462191770039e+00 7.016366522914975e-01 
2.253440040537119e+00 7.015261781102358e-01 
2.262417889304199e+00 7.014187557063162e-01 
2.271395738071279e+00 7.013144480641170e-01 
2.280373586838359e+00 7.012133179782867e-01 
2.289351435605440e+00 7.011154280492569e-01 
2.298329284372520e+00 7.010208406785979e-01 
2.307307133139600e+00 7.009296180642215e-01 
2.316284981906680e+00 7.008418221954318e-01 
2.325262830673760e+00 7.007575148478284e-01 
2.334240679440840e+00 7.006767575780662e-01 
2.343218528207920e+00 7.005996117184679e-01 
2.352196376975001e+00 7.005261383715004e-01 
2.361174225742081e+00 7.004563984041130e-01 
2.370152074509161e+00 7.003904524419411e-01 
2.379129923276241e+00 7.003283608633774e-01 
2.388107772043321e+00 7.002701837935184e-01 
2.397085620810401e+00 7.002159810979820e-01 
2.406063469577481e+00 7.001658123766052e-01 
2.415041318344562e+00 7.001197369570240e-01 
2.424019167111642e+00 7.000778138881353e-01 
2.432997015878722e+00 7.000401019334481e-01 
2.441974864645802e+00 7.000066595643274e-01 
2.450952713412883e+00 6.999775449531298e-01 
2.459930562179963e+00 6.999528159662417e-01 
2.468908410947042e+00 6.999325301570150e-01 
2.477886259714123e+00 6.999167447586115e-01 
2.486864108481203e+00 6.999055166767562e-01 
2.495841957248283e+00 6.998989024824037e-01 
2.504819806015363e+00 6.998969584043200e-01 
2.513797654782444e+00 6.998997403215895e-01 
2.522775503549524e+00 6.999073037560420e-01 
2.531753352316604e+00 6.999197038646123e-01 
2.540731201083684e+00 6.999369954316320e-01 
2.549709049850764e+00 6.999592328610589e-01 
2.558686898617844e+00 6.999864701686462e-01 
2.567664747384924e+00 7.000187609740609e-01 
2.576642596152005e+00 7.000561584929500e-01 
2.585620444919085e+00 7.000987155289615e-01 
2.594598293686165e+00 7.001464844657258e-01 
2.603576142453245e+00 7.001995172588000e-01 
2.612553991220325e+00 7.002578654275796e-01 
2.621531839987405e+00 7.003215800471839e-01 
2.630509688754485e+00 7.003907117403200e-01 
2.639487537521566e+00 7.004653106691248e-01 
2.648465386288646e+00 7.005454265269994e-01 
2.657443235055726e+00 7.006311085304301e-01 
2.666421083822806e+00 7.007224054108101e-01 
2.675398932589886e+00 7.008193654062577e-01 
2.684376781356967e+00 7.009220362534462e-01 
2.693354630124047e+00 7.010304651794395e-01 
