# 5 1000
# Pressure, Entropy, Quantity
# column * scaling factor should be SI units
# scaling factors (constant) for each column given on line below
# 1000000000.0 1.0
0.000000000000000000e+00 1.380603808046428185e+03
1.000000000000000000e+00 1.497198137963829822e+03
2.000000000000000000e+00 1.635008419299128036e+03
3.000000000000000000e+00 1.758701253593914998e+03
4.000000000000000000e+00 1.864534969335446704e+03
5.000000000000000000e+00 1.951216745968479927e+03
6.000000000000000000e+00 2.020109618993526055e+03
7.000000000000000000e+00 2.074777177230520465e+03
8.000000000000000000e+00 2.118303417051398355e+03
9.000000000000000000e+00 2.153325051628094570e+03
1.000000000000000000e+01 2.182063820180544553e+03
1.100000000000000000e+01 2.206330256676862518e+03
1.200000000000000000e+01 2.227663479848136831e+03
1.300000000000000000e+01 2.247226464114302416e+03
1.400000000000000000e+01 2.265897561047294403e+03
1.500000000000000000e+01 2.284302808619048847e+03
1.600000000000000000e+01 2.302848240449499826e+03
1.700000000000000000e+01 2.321756337067175082e+03
1.800000000000000000e+01 2.341084830642750148e+03
1.900000000000000000e+01 2.360771121196160038e+03
2.000000000000000000e+01 2.380662955499339660e+03
2.100000000000000000e+01 2.400550736324224545e+03
2.200000000000000000e+01 2.420199831690749761e+03
2.300000000000000000e+01 2.439376588687855474e+03
2.400000000000000000e+01 2.457897272925803918e+03
2.500000000000000000e+01 2.475648750024530727e+03
2.600000000000000000e+01 2.492623201955970671e+03
2.700000000000000000e+01 2.508950436292059294e+03
2.800000000000000000e+01 2.524930195452731368e+03
2.900000000000000000e+01 2.540885520542481117e+03
3.000000000000000000e+01 2.556840845632229502e+03
3.100000000000000000e+01 2.572796170721978342e+03
3.200000000000000000e+01 2.588751495811726727e+03
3.300000000000000000e+01 2.604706820901475567e+03
3.400000000000000000e+01 2.620662145991224406e+03
3.500000000000000000e+01 2.636617471080973246e+03
3.600000000000000000e+01 2.652572796170721631e+03
3.700000000000000000e+01 2.668528121260470471e+03
3.800000000000000000e+01 2.684483446350218856e+03
3.900000000000000000e+01 2.700438771439967695e+03
4.000000000000000000e+01 2.716394096529716535e+03
4.100000000000000000e+01 2.732349421619465375e+03
4.200000000000000000e+01 2.748304746709214214e+03
4.300000000000000000e+01 2.764260071798962599e+03
4.400000000000000000e+01 2.780215396888711439e+03
4.500000000000000000e+01 2.796170721978460278e+03
4.600000000000000000e+01 2.812126047068209118e+03
4.700000000000000000e+01 2.828081372157957503e+03
4.800000000000000000e+01 2.844036697247706343e+03
4.900000000000000000e+01 2.859992022337454728e+03
5.000000000000000000e+01 2.875947347427203567e+03
5.100000000000000000e+01 2.891902672516951952e+03
5.200000000000000000e+01 2.907857997606701247e+03
5.300000000000000000e+01 2.923813322696449632e+03
5.400000000000000000e+01 2.939768647786198471e+03
5.500000000000000000e+01 2.955723972875946856e+03
5.600000000000000000e+01 2.971679297965695696e+03
5.700000000000000000e+01 2.987634623055444536e+03
5.800000000000000000e+01 3.003589948145193375e+03
5.900000000000000000e+01 3.019545273234941760e+03
6.000000000000000000e+01 3.035500598324690600e+03
6.100000000000000000e+01 3.051455923414439440e+03
6.200000000000000000e+01 3.067411248504187824e+03
6.300000000000000000e+01 3.083366573593936664e+03
6.400000000000000000e+01 3.099321898683685504e+03
6.500000000000000000e+01 3.115277223773434343e+03
6.600000000000000000e+01 3.131232548863182728e+03
6.700000000000000000e+01 3.147187873952931568e+03
6.800000000000000000e+01 3.163143199042680408e+03
6.900000000000000000e+01 3.179098524132429247e+03
7.000000000000000000e+01 3.195053849222177632e+03
7.100000000000000000e+01 3.211009174311926472e+03
7.200000000000000000e+01 3.226964499401674857e+03
7.300000000000000000e+01 3.242919824491423697e+03
7.400000000000000000e+01 3.258875149581172082e+03
7.500000000000000000e+01 3.274830474670920921e+03
7.600000000000000000e+01 3.290785799760669761e+03
7.700000000000000000e+01 3.306741124850418601e+03
7.800000000000000000e+01 3.322696449940166985e+03
7.900000000000000000e+01 3.338651775029915825e+03
8.000000000000000000e+01 3.354607100119664665e+03
8.100000000000000000e+01 3.370562425209413504e+03
8.200000000000000000e+01 3.386517750299162344e+03
8.300000000000000000e+01 3.402473075388910729e+03
8.400000000000000000e+01 3.418428400478659569e+03
8.500000000000000000e+01 3.434383725568407954e+03
8.600000000000000000e+01 3.450339050658156793e+03
8.700000000000000000e+01 3.466294375747905178e+03
8.800000000000000000e+01 3.482249700837654473e+03
8.900000000000000000e+01 3.498205025927402858e+03
9.000000000000000000e+01 3.514160351017151697e+03
9.100000000000000000e+01 3.530115676106900537e+03
9.200000000000000000e+01 3.546071001196649377e+03
9.300000000000000000e+01 3.562026326286397762e+03
9.400000000000000000e+01 3.577981651376146601e+03
9.500000000000000000e+01 3.593936976465894986e+03
9.600000000000000000e+01 3.609892301555643826e+03
9.700000000000000000e+01 3.625847626645392211e+03
9.800000000000000000e+01 3.641802951735141050e+03
9.900000000000000000e+01 3.657758276824889890e+03
1.000000000000000000e+02 3.673713601914638730e+03
1.010000000000000000e+02 3.689668927004387569e+03
1.020000000000000000e+02 3.705624252094135954e+03
1.030000000000000000e+02 3.721579577183885249e+03
1.040000000000000000e+02 3.737534902273633634e+03
1.050000000000000000e+02 3.753490227363382473e+03
1.060000000000000000e+02 3.769445552453130858e+03
1.070000000000000000e+02 3.785400877542879698e+03
1.080000000000000000e+02 3.801356202632628083e+03
1.090000000000000000e+02 3.817311527722376923e+03
1.100000000000000000e+02 3.833266852812125308e+03
1.110000000000000000e+02 3.849222177901875057e+03
1.120000000000000000e+02 3.865177502991623442e+03
1.130000000000000000e+02 3.881132828081372281e+03
1.140000000000000000e+02 3.897088153171120666e+03
1.150000000000000000e+02 3.913043478260869506e+03
1.160000000000000000e+02 3.928998803350617891e+03
1.170000000000000000e+02 3.944954128440366731e+03
1.180000000000000000e+02 3.960909453530115115e+03
1.190000000000000000e+02 3.976864778619863955e+03
1.200000000000000000e+02 3.992820103709612795e+03
1.210000000000000000e+02 4.008775428799361180e+03
1.220000000000000000e+02 4.024730753889110019e+03
1.230000000000000000e+02 4.040686078978858404e+03
1.240000000000000000e+02 4.056641404068607244e+03
1.250000000000000000e+02 4.072596729158355629e+03
1.260000000000000000e+02 4.088552054248105378e+03
1.270000000000000000e+02 4.104507379337854218e+03
1.280000000000000000e+02 4.120462704427602148e+03
1.290000000000000000e+02 4.136418029517350988e+03
1.300000000000000000e+02 4.152373354607099827e+03
1.310000000000000000e+02 4.168328679696848667e+03
1.320000000000000000e+02 4.184284004786596597e+03
1.330000000000000000e+02 4.200239329876345437e+03
1.340000000000000000e+02 4.216194654966094276e+03
1.350000000000000000e+02 4.232149980055844026e+03
1.360000000000000000e+02 4.248105305145591956e+03
1.370000000000000000e+02 4.264060630235340795e+03
1.380000000000000000e+02 4.280015955325089635e+03
1.390000000000000000e+02 4.295971280414838475e+03
1.400000000000000000e+02 4.311926605504586405e+03
1.410000000000000000e+02 4.327881930594335245e+03
1.420000000000000000e+02 4.343837255684084084e+03
1.430000000000000000e+02 4.359792580773832924e+03
1.440000000000000000e+02 4.375747905863581764e+03
1.450000000000000000e+02 4.391703230953329694e+03
1.460000000000000000e+02 4.407658556043078534e+03
1.470000000000000000e+02 4.423613881132827373e+03
1.480000000000000000e+02 4.439569206222576213e+03
1.490000000000000000e+02 4.455524531312324143e+03
1.500000000000000000e+02 4.471479856402072983e+03
1.510000000000000000e+02 4.487435181491822732e+03
1.520000000000000000e+02 4.503390506581571572e+03
1.530000000000000000e+02 4.519345831671319502e+03
1.540000000000000000e+02 4.535301156761068341e+03
1.550000000000000000e+02 4.551256481850817181e+03
1.560000000000000000e+02 4.567211806940566930e+03
1.570000000000000000e+02 4.583167132030314860e+03
1.580000000000000000e+02 4.599122457120063700e+03
1.590000000000000000e+02 4.615077782209812540e+03
1.600000000000000000e+02 4.631033107299561379e+03
1.610000000000000000e+02 4.646988432389309310e+03
1.620000000000000000e+02 4.662943757479058149e+03
1.630000000000000000e+02 4.678899082568806989e+03
1.640000000000000000e+02 4.694854407658555829e+03
1.650000000000000000e+02 4.710809732748304668e+03
1.660000000000000000e+02 4.726765057838052599e+03
1.670000000000000000e+02 4.742720382927801438e+03
1.680000000000000000e+02 4.758675708017550278e+03
1.690000000000000000e+02 4.774631033107299118e+03
1.700000000000000000e+02 4.790586358197047048e+03
1.710000000000000000e+02 4.806541683286795887e+03
1.720000000000000000e+02 4.822497008376544727e+03
1.730000000000000000e+02 4.838452333466293567e+03
1.740000000000000000e+02 4.854407658556042406e+03
1.750000000000000000e+02 4.870362983645791246e+03
1.760000000000000000e+02 4.886318308735540086e+03
1.770000000000000000e+02 4.902273633825288925e+03
1.780000000000000000e+02 4.918228958915036856e+03
1.790000000000000000e+02 4.934184284004785695e+03
1.800000000000000000e+02 4.950139609094535444e+03
1.810000000000000000e+02 4.966094934184284284e+03
1.820000000000000000e+02 4.982050259274032214e+03
1.830000000000000000e+02 4.998005584363781054e+03
1.840000000000000000e+02 5.013960909453529894e+03
1.850000000000000000e+02 5.029916234543278733e+03
1.860000000000000000e+02 5.045871559633027573e+03
1.870000000000000000e+02 5.061826884722775503e+03
1.880000000000000000e+02 5.077782209812524343e+03
1.890000000000000000e+02 5.093737534902273183e+03
1.900000000000000000e+02 5.109692859992022022e+03
1.910000000000000000e+02 5.125648185081769952e+03
1.920000000000000000e+02 5.141603510171518792e+03
1.930000000000000000e+02 5.157558835261267632e+03
1.940000000000000000e+02 5.173514160351016471e+03
1.950000000000000000e+02 5.189469485440764402e+03
1.960000000000000000e+02 5.205424810530513241e+03
1.970000000000000000e+02 5.221380135620262990e+03
1.980000000000000000e+02 5.237335460710011830e+03
1.990000000000000000e+02 5.253290785799759760e+03
2.000000000000000000e+02 5.269246110889508600e+03
2.010000000000000000e+02 5.285201435979257440e+03
2.020000000000000000e+02 5.301156761069006279e+03
2.030000000000000000e+02 5.317112086158755119e+03
2.040000000000000000e+02 5.333067411248503959e+03
2.050000000000000000e+02 5.349022736338252798e+03
2.060000000000000000e+02 5.364978061428001638e+03
2.070000000000000000e+02 5.380933386517750478e+03
2.080000000000000000e+02 5.396888711607498408e+03
2.090000000000000000e+02 5.412844036697247248e+03
2.100000000000000000e+02 5.428799361786996087e+03
2.110000000000000000e+02 5.444754686876744927e+03
2.120000000000000000e+02 5.460710011966492857e+03
2.130000000000000000e+02 5.476665337056241697e+03
2.140000000000000000e+02 5.492620662145990536e+03
2.150000000000000000e+02 5.508575987235739376e+03
2.160000000000000000e+02 5.524531312325487306e+03
2.170000000000000000e+02 5.540486637415236146e+03
2.180000000000000000e+02 5.556441962504984986e+03
2.190000000000000000e+02 5.572397287594733825e+03
2.200000000000000000e+02 5.588352612684482665e+03
2.210000000000000000e+02 5.604307937774231505e+03
2.220000000000000000e+02 5.620263262863980344e+03
2.230000000000000000e+02 5.636218587953729184e+03
2.240000000000000000e+02 5.652173913043478024e+03
2.250000000000000000e+02 5.668129238133225954e+03
2.260000000000000000e+02 5.684084563222975703e+03
2.270000000000000000e+02 5.700039888312724543e+03
2.280000000000000000e+02 5.715995213402473382e+03
2.290000000000000000e+02 5.731950538492221312e+03
2.300000000000000000e+02 5.747905863581970152e+03
2.310000000000000000e+02 5.763861188671718992e+03
2.320000000000000000e+02 5.779816513761467832e+03
2.330000000000000000e+02 5.795771838851215762e+03
2.340000000000000000e+02 5.811727163940964601e+03
2.350000000000000000e+02 5.827682489030713441e+03
2.360000000000000000e+02 5.843637814120462281e+03
2.370000000000000000e+02 5.859593139210210211e+03
2.380000000000000000e+02 5.875548464299959051e+03
2.390000000000000000e+02 5.891503789389707890e+03
2.400000000000000000e+02 5.907459114479456730e+03
2.410000000000000000e+02 5.923414439569205570e+03
2.420000000000000000e+02 5.939369764658953500e+03
2.430000000000000000e+02 5.955325089748702339e+03
2.440000000000000000e+02 5.971280414838452089e+03
2.450000000000000000e+02 5.987235739928200928e+03
2.460000000000000000e+02 6.003191065017948858e+03
2.470000000000000000e+02 6.019146390107697698e+03
2.480000000000000000e+02 6.035101715197446538e+03
2.490000000000000000e+02 6.051057040287195377e+03
2.500000000000000000e+02 6.067012365376944217e+03
2.510000000000000000e+02 6.082967690466693057e+03
2.520000000000000000e+02 6.098923015556441896e+03
2.530000000000000000e+02 6.114878340646190736e+03
2.540000000000000000e+02 6.130833665735938666e+03
2.550000000000000000e+02 6.146788990825687506e+03
2.560000000000000000e+02 6.162744315915436346e+03
2.570000000000000000e+02 6.178699641005185185e+03
2.580000000000000000e+02 6.194654966094933116e+03
2.590000000000000000e+02 6.210610291184681955e+03
2.600000000000000000e+02 6.226565616274430795e+03
2.610000000000000000e+02 6.242520941364179635e+03
2.620000000000000000e+02 6.258476266453928474e+03
2.630000000000000000e+02 6.274431591543676404e+03
2.640000000000000000e+02 6.290386916633426154e+03
2.650000000000000000e+02 6.306342241723174993e+03
2.660000000000000000e+02 6.322297566812923833e+03
2.670000000000000000e+02 6.338252891902671763e+03
2.680000000000000000e+02 6.354208216992420603e+03
2.690000000000000000e+02 6.370163542082169442e+03
2.700000000000000000e+02 6.386118867171918282e+03
2.710000000000000000e+02 6.402074192261666212e+03
2.720000000000000000e+02 6.418029517351415052e+03
2.730000000000000000e+02 6.433984842441163892e+03
2.740000000000000000e+02 6.449940167530912731e+03
2.750000000000000000e+02 6.465895492620660661e+03
2.760000000000000000e+02 6.481850817710410411e+03
2.770000000000000000e+02 6.497806142800159250e+03
2.780000000000000000e+02 6.513761467889908090e+03
2.790000000000000000e+02 6.529716792979656020e+03
2.800000000000000000e+02 6.545672118069404860e+03
2.810000000000000000e+02 6.561627443159153700e+03
2.820000000000000000e+02 6.577582768248902539e+03
2.830000000000000000e+02 6.593538093338651379e+03
2.840000000000000000e+02 6.609493418428399309e+03
2.850000000000000000e+02 6.625448743518148149e+03
2.860000000000000000e+02 6.641404068607896988e+03
2.870000000000000000e+02 6.657359393697645828e+03
2.880000000000000000e+02 6.673314718787394668e+03
2.890000000000000000e+02 6.689270043877143507e+03
2.900000000000000000e+02 6.705225368966892347e+03
2.910000000000000000e+02 6.721180694056641187e+03
2.920000000000000000e+02 6.737136019146389117e+03
2.930000000000000000e+02 6.753091344236137957e+03
2.940000000000000000e+02 6.769046669325886796e+03
2.950000000000000000e+02 6.785001994415635636e+03
2.960000000000000000e+02 6.800957319505383566e+03
2.970000000000000000e+02 6.816912644595132406e+03
2.980000000000000000e+02 6.832867969684881245e+03
2.990000000000000000e+02 6.848823294774630995e+03
3.000000000000000000e+02 6.864778619864378925e+03
3.010000000000000000e+02 6.880733944954127765e+03
3.020000000000000000e+02 6.896689270043876604e+03
3.030000000000000000e+02 6.912644595133625444e+03
3.040000000000000000e+02 6.928599920223373374e+03
3.050000000000000000e+02 6.944555245313122214e+03
3.060000000000000000e+02 6.960510570402871053e+03
3.070000000000000000e+02 6.976465895492619893e+03
3.080000000000000000e+02 6.992421220582368733e+03
3.090000000000000000e+02 7.008376545672116663e+03
3.100000000000000000e+02 7.024331870761865503e+03
3.110000000000000000e+02 7.040287195851615252e+03
3.120000000000000000e+02 7.056242520941364091e+03
3.130000000000000000e+02 7.072197846031112022e+03
3.140000000000000000e+02 7.088153171120860861e+03
3.150000000000000000e+02 7.104108496210609701e+03
3.160000000000000000e+02 7.120063821300358541e+03
3.170000000000000000e+02 7.136019146390106471e+03
3.180000000000000000e+02 7.151974471479855310e+03
3.190000000000000000e+02 7.167929796569604150e+03
3.200000000000000000e+02 7.183885121659352990e+03
3.210000000000000000e+02 7.199840446749100920e+03
3.220000000000000000e+02 7.215795771838850669e+03
3.230000000000000000e+02 7.231751096928599509e+03
3.240000000000000000e+02 7.247706422018348349e+03
3.250000000000000000e+02 7.263661747108096279e+03
3.260000000000000000e+02 7.279617072197845118e+03
3.270000000000000000e+02 7.295572397287593958e+03
3.280000000000000000e+02 7.311527722377342798e+03
3.290000000000000000e+02 7.327483047467091637e+03
3.300000000000000000e+02 7.343438372556839568e+03
3.310000000000000000e+02 7.359393697646588407e+03
3.320000000000000000e+02 7.375349022736337247e+03
3.330000000000000000e+02 7.391304347826086087e+03
3.340000000000000000e+02 7.407259672915834926e+03
3.350000000000000000e+02 7.423214998005583766e+03
3.360000000000000000e+02 7.439170323095332606e+03
3.370000000000000000e+02 7.455125648185081445e+03
3.380000000000000000e+02 7.471080973274829375e+03
3.390000000000000000e+02 7.487036298364578215e+03
3.400000000000000000e+02 7.502991623454327055e+03
3.410000000000000000e+02 7.518946948544076804e+03
3.420000000000000000e+02 7.534902273633823825e+03
3.430000000000000000e+02 7.550857598723573574e+03
3.440000000000000000e+02 7.566812923813320594e+03
3.450000000000000000e+02 7.582768248903071253e+03
3.460000000000000000e+02 7.598723573992819183e+03
3.470000000000000000e+02 7.614678899082568023e+03
3.480000000000000000e+02 7.630634224172316863e+03
3.490000000000000000e+02 7.646589549262065702e+03
3.500000000000000000e+02 7.662544874351814542e+03
3.510000000000000000e+02 7.678500199441562472e+03
3.520000000000000000e+02 7.694455524531311312e+03
3.530000000000000000e+02 7.710410849621060152e+03
3.540000000000000000e+02 7.726366174710808991e+03
3.550000000000000000e+02 7.742321499800556921e+03
3.560000000000000000e+02 7.758276824890305761e+03
3.570000000000000000e+02 7.774232149980054601e+03
3.580000000000000000e+02 7.790187475069805259e+03
3.590000000000000000e+02 7.806142800159551371e+03
3.600000000000000000e+02 7.822098125249302029e+03
3.610000000000000000e+02 7.838053450339049050e+03
3.620000000000000000e+02 7.854008775428799709e+03
3.630000000000000000e+02 7.869964100518546729e+03
3.640000000000000000e+02 7.885919425608296478e+03
3.650000000000000000e+02 7.901874750698043499e+03
3.660000000000000000e+02 7.917830075787794158e+03
3.670000000000000000e+02 7.933785400877541178e+03
3.680000000000000000e+02 7.949740725967290928e+03
3.690000000000000000e+02 7.965696051057039767e+03
3.700000000000000000e+02 7.981651376146788607e+03
3.710000000000000000e+02 7.997606701236537447e+03
3.720000000000000000e+02 8.013562026326285377e+03
3.730000000000000000e+02 8.029517351416034217e+03
3.740000000000000000e+02 8.045472676505783056e+03
3.750000000000000000e+02 8.061428001595531896e+03
3.760000000000000000e+02 8.077383326685279826e+03
3.770000000000000000e+02 8.093338651775028666e+03
3.780000000000000000e+02 8.109293976864777505e+03
3.790000000000000000e+02 8.125249301954526345e+03
3.800000000000000000e+02 8.141204627044274275e+03
3.810000000000000000e+02 8.157159952134024934e+03
3.820000000000000000e+02 8.173115277223771955e+03
3.830000000000000000e+02 8.189070602313522613e+03
3.840000000000000000e+02 8.205025927403268724e+03
3.850000000000000000e+02 8.220981252493020293e+03
3.860000000000000000e+02 8.236936577582766404e+03
3.870000000000000000e+02 8.252891902672516153e+03
3.880000000000000000e+02 8.268847227762264083e+03
3.890000000000000000e+02 8.284802552852013832e+03
3.900000000000000000e+02 8.300757877941761762e+03
3.910000000000000000e+02 8.316713203031511512e+03
3.920000000000000000e+02 8.332668528121259442e+03
3.930000000000000000e+02 8.348623853211009191e+03
3.940000000000000000e+02 8.364579178300757121e+03
3.950000000000000000e+02 8.380534503390505051e+03
