# 5 1000
# Pressure, Entropy, Quantity
# column * scaling factor should be SI units
# scaling factors (constant) for each column given on line below
# 1000000000.0 4824266.84604467
0.000000000000000000e+00 4.061299054097129431e-04
1.000000000000000000e+00 4.139215140393306155e-04
2.000000000000000000e+00 4.222589231839563723e-04
3.000000000000000000e+00 4.273960944151865239e-04
4.000000000000000000e+00 4.304088573351161654e-04
5.000000000000000000e+00 4.317116647043384874e-04
6.000000000000000000e+00 4.319252184941559233e-04
7.000000000000000000e+00 4.312290130762368038e-04
8.000000000000000000e+00 4.299238164741604404e-04
9.000000000000000000e+00 4.285755309074672356e-04
1.000000000000000000e+01 4.274052371387315622e-04
1.100000000000000000e+01 4.264567652050334765e-04
1.200000000000000000e+01 4.258377771747277668e-04
1.300000000000000000e+01 4.265513184293294024e-04
1.400000000000000000e+01 4.282056357599180966e-04
1.500000000000000000e+01 4.305598132168707510e-04
1.600000000000000000e+01 4.333886799997254107e-04
1.700000000000000000e+01 4.364822964855758630e-04
1.800000000000000000e+01 4.396443249634893798e-04
1.900000000000000000e+01 4.426938138219005739e-04
2.000000000000000000e+01 4.454630574638835869e-04
2.100000000000000000e+01 4.477944280722627522e-04
2.200000000000000000e+01 4.495412398093433606e-04
2.300000000000000000e+01 4.505616300928362355e-04
2.400000000000000000e+01 4.511818821041437867e-04
2.500000000000000000e+01 4.518234823733695608e-04
2.600000000000000000e+01 4.524842459873507821e-04
2.700000000000000000e+01 4.531622330552084418e-04
2.800000000000000000e+01 4.538557154771111213e-04
2.900000000000000000e+01 4.545631490469911710e-04
3.000000000000000000e+01 4.552831499011603979e-04
3.100000000000000000e+01 4.560144745316008913e-04
3.200000000000000000e+01 4.567560027414537135e-04
3.300000000000000000e+01 4.575067230431047660e-04
3.400000000000000000e+01 4.582657200951877063e-04
3.500000000000000000e+01 4.590321638502581824e-04
3.600000000000000000e+01 4.598053001446454451e-04
3.700000000000000000e+01 4.605844425096345058e-04
3.800000000000000000e+01 4.613689650213774560e-04
3.900000000000000000e+01 4.621582960377924269e-04
4.000000000000000000e+01 4.629519126957745007e-04
4.100000000000000000e+01 4.637493360624921871e-04
4.200000000000000000e+01 4.645501268513185008e-04
4.300000000000000000e+01 4.653538816267733234e-04
4.400000000000000000e+01 4.661602294342953698e-04
4.500000000000000000e+01 4.669688288001856593e-04
4.600000000000000000e+01 4.677793650550047611e-04
4.700000000000000000e+01 4.685915479403669889e-04
4.800000000000000000e+01 4.694051094646796126e-04
4.900000000000000000e+01 4.702198019781014598e-04
5.000000000000000000e+01 4.710353964410065068e-04
5.100000000000000000e+01 4.718516808636364322e-04
5.200000000000000000e+01 4.726684588975429936e-04
5.300000000000000000e+01 4.734855485618855294e-04
5.400000000000000000e+01 4.743027810897988109e-04
5.500000000000000000e+01 4.751199998818584919e-04
5.600000000000000000e+01 4.759370595552635599e-04
5.700000000000000000e+01 4.767538250787167276e-04
5.800000000000000000e+01 4.775701709841607186e-04
5.900000000000000000e+01 4.783859806475660890e-04
6.000000000000000000e+01 4.792011456318514759e-04
6.100000000000000000e+01 4.800155650858029975e-04
6.200000000000000000e+01 4.808291451935421939e-04
6.300000000000000000e+01 4.816417986696847411e-04
6.400000000000000000e+01 4.824534442958657065e-04
6.500000000000000000e+01 4.832640064947606347e-04
6.600000000000000000e+01 4.840734149381445113e-04
6.700000000000000000e+01 4.848816041858883806e-04
6.800000000000000000e+01 4.856885133531100370e-04
6.900000000000000000e+01 4.864940858029793806e-04
7.000000000000000000e+01 4.872982688629264383e-04
7.100000000000000000e+01 4.881010135622249188e-04
7.200000000000000000e+01 4.889022743891192164e-04
7.300000000000000000e+01 4.897020090658417814e-04
7.400000000000000000e+01 4.905001783400225962e-04
7.500000000000000000e+01 4.912967457911367533e-04
7.600000000000000000e+01 4.920916776507580463e-04
7.700000000000000000e+01 4.928849426355036900e-04
7.800000000000000000e+01 4.936765117916537288e-04
7.900000000000000000e+01 4.944663583505211780e-04
8.000000000000000000e+01 4.952544575937314463e-04
8.100000000000000000e+01 4.960407867276433189e-04
8.200000000000000000e+01 4.968253247662112121e-04
8.300000000000000000e+01 4.976080524216446857e-04
8.400000000000000000e+01 4.983889520022840788e-04
8.500000000000000000e+01 4.991680073171522302e-04
8.600000000000000000e+01 4.999452035866918959e-04
8.700000000000000000e+01 5.007205273592359954e-04
8.800000000000000000e+01 5.014939664327992298e-04
8.900000000000000000e+01 5.022655097818074822e-04
9.000000000000000000e+01 5.030351474884168627e-04
9.100000000000000000e+01 5.038028706780982215e-04
9.200000000000000000e+01 5.045686714591927696e-04
9.300000000000000000e+01 5.053325428661619009e-04
9.400000000000000000e+01 5.060944788062802244e-04
9.500000000000000000e+01 5.068544740095390268e-04
9.600000000000000000e+01 5.076125239815431093e-04
9.700000000000000000e+01 5.083686249592020466e-04
9.800000000000000000e+01 5.091227738690311212e-04
9.900000000000000000e+01 5.098749682878926876e-04
1.000000000000000000e+02 5.106252064060169639e-04
1.010000000000000000e+02 5.113734869921556653e-04
1.020000000000000000e+02 5.121198093607345816e-04
1.030000000000000000e+02 5.128641733408758610e-04
1.040000000000000000e+02 5.136065792471737742e-04
1.050000000000000000e+02 5.143470278521117441e-04
1.060000000000000000e+02 5.150855203600254468e-04
1.070000000000000000e+02 5.158220583825075777e-04
1.080000000000000000e+02 5.165566439151757835e-04
1.090000000000000000e+02 5.172892793157136656e-04
1.100000000000000000e+02 5.180199672831132954e-04
1.110000000000000000e+02 5.187487108380439997e-04
1.120000000000000000e+02 5.194755133042844222e-04
1.130000000000000000e+02 5.202003782911511845e-04
1.140000000000000000e+02 5.209233096768688511e-04
1.150000000000000000e+02 5.216443115928251452e-04
1.160000000000000000e+02 5.223633884086606753e-04
1.170000000000000000e+02 5.230805447181460094e-04
1.180000000000000000e+02 5.237957853258001263e-04
1.190000000000000000e+02 5.245091152342093704e-04
1.200000000000000000e+02 5.252205396320066850e-04
1.210000000000000000e+02 5.259300638824748048e-04
1.220000000000000000e+02 5.266376935127392534e-04
1.230000000000000000e+02 5.273434342035171040e-04
1.240000000000000000e+02 5.280472917793923356e-04
1.250000000000000000e+02 5.287492721995899238e-04
1.260000000000000000e+02 5.294493815492177635e-04
1.270000000000000000e+02 5.301476260309563680e-04
1.280000000000000000e+02 5.308440119571699971e-04
1.290000000000000000e+02 5.315385457424147116e-04
1.300000000000000000e+02 5.322312338963258987e-04
1.310000000000000000e+02 5.329220830168634754e-04
1.320000000000000000e+02 5.336110997838959058e-04
1.330000000000000000e+02 5.342982909531064422e-04
1.340000000000000000e+02 5.349836633502037028e-04
1.350000000000000000e+02 5.356672238654217304e-04
1.360000000000000000e+02 5.363489794482929462e-04
1.370000000000000000e+02 5.370289371026847796e-04
1.380000000000000000e+02 5.377071038820792695e-04
1.390000000000000000e+02 5.383834868850903219e-04
1.400000000000000000e+02 5.390580932512025782e-04
1.410000000000000000e+02 5.397309301567214867e-04
1.420000000000000000e+02 5.404020048109255776e-04
1.430000000000000000e+02 5.410713244524084729e-04
1.440000000000000000e+02 5.417388963456036934e-04
1.450000000000000000e+02 5.424047277774823959e-04
1.460000000000000000e+02 5.430688260544126560e-04
1.470000000000000000e+02 5.437311984991796470e-04
1.480000000000000000e+02 5.443918524481496926e-04
1.490000000000000000e+02 5.450507952485784090e-04
1.500000000000000000e+02 5.457080342560536148e-04
1.510000000000000000e+02 5.463635768320641156e-04
1.520000000000000000e+02 5.470174303416937148e-04
1.530000000000000000e+02 5.476696021514278721e-04
1.540000000000000000e+02 5.483200996270742042e-04
1.550000000000000000e+02 5.489689301317857671e-04
1.560000000000000000e+02 5.496161010241873380e-04
1.570000000000000000e+02 5.502616196565937460e-04
1.580000000000000000e+02 5.509054933733243710e-04
1.590000000000000000e+02 5.515477295090993924e-04
1.600000000000000000e+02 5.521883353875227732e-04
1.610000000000000000e+02 5.528273183196414633e-04
1.620000000000000000e+02 5.534646856025829918e-04
1.630000000000000000e+02 5.541004445182615796e-04
1.640000000000000000e+02 5.547346023321547259e-04
1.650000000000000000e+02 5.553671662921454968e-04
1.660000000000000000e+02 5.559981436274256386e-04
1.670000000000000000e+02 5.566275415474592966e-04
1.680000000000000000e+02 5.572553672410030055e-04
1.690000000000000000e+02 5.578816278751804305e-04
1.700000000000000000e+02 5.585063305946082841e-04
1.710000000000000000e+02 5.591294825205710313e-04
1.720000000000000000e+02 5.597510907502450343e-04
1.730000000000000000e+02 5.603711623559645477e-04
1.740000000000000000e+02 5.609897043845324914e-04
1.750000000000000000e+02 5.616067238565725312e-04
1.760000000000000000e+02 5.622222277659180223e-04
1.770000000000000000e+02 5.628362230790420447e-04
1.780000000000000000e+02 5.634487167345190962e-04
1.790000000000000000e+02 5.640597156425234326e-04
1.800000000000000000e+02 5.646692266843594994e-04
1.810000000000000000e+02 5.652772567120220712e-04
1.820000000000000000e+02 5.658838125477883745e-04
1.830000000000000000e+02 5.664889009838362322e-04
1.840000000000000000e+02 5.670925287818907217e-04
1.850000000000000000e+02 5.676947026728960954e-04
1.860000000000000000e+02 5.682954293567120960e-04
1.870000000000000000e+02 5.688947155018350991e-04
1.880000000000000000e+02 5.694925677451395316e-04
1.890000000000000000e+02 5.700889926916430329e-04
1.900000000000000000e+02 5.706839969142909162e-04
1.910000000000000000e+02 5.712775869537599274e-04
1.920000000000000000e+02 5.718697693182816285e-04
1.930000000000000000e+02 5.724605504834826952e-04
1.940000000000000000e+02 5.730499368922432109e-04
1.950000000000000000e+02 5.736379349545704665e-04
1.960000000000000000e+02 5.742245510474880453e-04
1.970000000000000000e+02 5.748097915149407398e-04
1.980000000000000000e+02 5.753936626677123682e-04
1.990000000000000000e+02 5.759761707833581205e-04
2.000000000000000000e+02 5.765573221061489392e-04
2.010000000000000000e+02 5.771371228470285842e-04
2.020000000000000000e+02 5.777155791835829508e-04
2.030000000000000000e+02 5.782926972600316122e-04
2.040000000000000000e+02 5.788684831871653697e-04
2.050000000000000000e+02 5.794429430424285436e-04
2.060000000000000000e+02 5.800160828698736537e-04
2.070000000000000000e+02 5.805879086801949210e-04
2.080000000000000000e+02 5.811584264507554812e-04
2.090000000000000000e+02 5.817276421256255487e-04
2.100000000000000000e+02 5.822955616156245918e-04
2.110000000000000000e+02 5.828621907983743506e-04
2.120000000000000000e+02 5.834275355183577089e-04
2.130000000000000000e+02 5.839916015869840715e-04
2.140000000000000000e+02 5.845543947826620061e-04
2.150000000000000000e+02 5.851159208508776308e-04
2.160000000000000000e+02 5.856761855042784230e-04
2.170000000000000000e+02 5.862351944227632084e-04
2.180000000000000000e+02 5.867929532535776788e-04
2.190000000000000000e+02 5.873494676114134885e-04
2.200000000000000000e+02 5.879047430785140724e-04
2.210000000000000000e+02 5.884587852047830662e-04
2.220000000000000000e+02 5.890115995078974969e-04
2.230000000000000000e+02 5.895631914734265032e-04
2.240000000000000000e+02 5.901135665549510313e-04
2.250000000000000000e+02 5.906627301741898192e-04
2.260000000000000000e+02 5.912106877211270074e-04
2.270000000000000000e+02 5.917574445541435441e-04
2.280000000000000000e+02 5.923030060001510839e-04
2.290000000000000000e+02 5.928473773547303328e-04
2.300000000000000000e+02 5.933905638822694999e-04
2.310000000000000000e+02 5.939325708161074125e-04
2.320000000000000000e+02 5.944734033586773899e-04
2.330000000000000000e+02 5.950130666816550199e-04
2.340000000000000000e+02 5.955515659261056104e-04
2.350000000000000000e+02 5.960889062026363027e-04
2.360000000000000000e+02 5.966250925915469929e-04
2.370000000000000000e+02 5.971601301429854810e-04
2.380000000000000000e+02 5.976940238771027286e-04
2.390000000000000000e+02 5.982267787842098514e-04
2.400000000000000000e+02 5.987583998249361959e-04
2.410000000000000000e+02 5.992888919303888257e-04
2.420000000000000000e+02 5.998182600023130914e-04
2.430000000000000000e+02 6.003465089132542856e-04
2.440000000000000000e+02 6.008736435067198395e-04
2.450000000000000000e+02 6.013996685973420613e-04
2.460000000000000000e+02 6.019245889710432606e-04
2.470000000000000000e+02 6.024484093851988119e-04
2.480000000000000000e+02 6.029711345688031467e-04
2.490000000000000000e+02 6.034927692226349852e-04
2.500000000000000000e+02 6.040133180194236532e-04
2.510000000000000000e+02 6.045327856040146400e-04
2.520000000000000000e+02 6.050511765935369986e-04
2.530000000000000000e+02 6.055684955775697716e-04
2.540000000000000000e+02 6.060847471183086321e-04
2.550000000000000000e+02 6.065999357507336105e-04
2.560000000000000000e+02 6.071140659827751942e-04
2.570000000000000000e+02 6.076271422954831374e-04
2.580000000000000000e+02 6.081391691431907182e-04
2.590000000000000000e+02 6.086501509536850667e-04
2.600000000000000000e+02 6.091600921283705540e-04
2.610000000000000000e+02 6.096689970424374943e-04
2.620000000000000000e+02 6.101768700450281363e-04
2.630000000000000000e+02 6.106837154594017868e-04
2.640000000000000000e+02 6.111895375831018868e-04
2.650000000000000000e+02 6.116943406881200510e-04
2.660000000000000000e+02 6.121981290210620590e-04
2.670000000000000000e+02 6.127009068033116785e-04
2.680000000000000000e+02 6.132026782311956808e-04
2.690000000000000000e+02 6.137034474761470133e-04
2.700000000000000000e+02 6.142032186848671044e-04
2.710000000000000000e+02 6.147019959794904455e-04
2.720000000000000000e+02 6.151997834577450528e-04
2.730000000000000000e+02 6.156965851931143390e-04
2.740000000000000000e+02 6.161924052349983336e-04
2.750000000000000000e+02 6.166872476088739287e-04
2.760000000000000000e+02 6.171811163164542561e-04
2.770000000000000000e+02 6.176740153358473064e-04
2.780000000000000000e+02 6.181659486217157403e-04
2.790000000000000000e+02 6.186569201054325801e-04
2.800000000000000000e+02 6.191469336952391779e-04
2.810000000000000000e+02 6.196359932764012321e-04
2.820000000000000000e+02 6.201241027113646963e-04
2.830000000000000000e+02 6.206112658399091930e-04
2.840000000000000000e+02 6.210974864793029470e-04
2.850000000000000000e+02 6.215827684244558740e-04
2.860000000000000000e+02 6.220671154480710442e-04
2.870000000000000000e+02 6.225505313007977711e-04
2.880000000000000000e+02 6.230330197113806900e-04
2.890000000000000000e+02 6.235145843868110035e-04
2.900000000000000000e+02 6.239952290124744757e-04
2.910000000000000000e+02 6.244749572523007261e-04
2.920000000000000000e+02 6.249537727489098147e-04
2.930000000000000000e+02 6.254316791237594757e-04
2.940000000000000000e+02 6.259086799772900760e-04
2.950000000000000000e+02 6.263847788890702234e-04
2.960000000000000000e+02 6.268599794179405315e-04
2.970000000000000000e+02 6.273342851021568431e-04
2.980000000000000000e+02 6.278076994595316101e-04
2.990000000000000000e+02 6.282802259875767915e-04
3.000000000000000000e+02 6.287518681636433899e-04
3.010000000000000000e+02 6.292226294450609884e-04
3.020000000000000000e+02 6.296925132692771793e-04
3.030000000000000000e+02 6.301615230539948237e-04
3.040000000000000000e+02 6.306296621973094202e-04
3.050000000000000000e+02 6.310969340778451722e-04
3.060000000000000000e+02 6.315633420548894287e-04
3.070000000000000000e+02 6.320288894685283185e-04
3.080000000000000000e+02 6.324935796397791309e-04
3.090000000000000000e+02 6.329574158707232390e-04
3.100000000000000000e+02 6.334204014446379385e-04
3.110000000000000000e+02 6.338825396261267694e-04
3.120000000000000000e+02 6.343438336612494026e-04
3.130000000000000000e+02 6.348042867776512027e-04
3.140000000000000000e+02 6.352639021846908382e-04
3.150000000000000000e+02 6.357226830735678924e-04
3.160000000000000000e+02 6.361806326174485222e-04
3.170000000000000000e+02 6.366377539715910088e-04
3.180000000000000000e+02 6.370940502734715252e-04
3.190000000000000000e+02 6.375495246429066509e-04
3.200000000000000000e+02 6.380041801821761038e-04
3.210000000000000000e+02 6.384580199761454716e-04
3.220000000000000000e+02 6.389110470923869923e-04
3.230000000000000000e+02 6.393632645812993582e-04
3.240000000000000000e+02 6.398146754762278456e-04
3.250000000000000000e+02 6.402652827935821677e-04
3.260000000000000000e+02 6.407150895329545440e-04
3.270000000000000000e+02 6.411640986772362523e-04
3.280000000000000000e+02 6.416123131927335297e-04
3.290000000000000000e+02 6.420597360292830402e-04
3.300000000000000000e+02 6.425063701203656075e-04
3.310000000000000000e+02 6.429522183832203815e-04
3.320000000000000000e+02 6.433972837189562942e-04
3.330000000000000000e+02 6.438415690126653591e-04
3.340000000000000000e+02 6.442850771335316331e-04
3.350000000000000000e+02 6.447278109349433234e-04
3.360000000000000000e+02 6.451697732546009907e-04
3.370000000000000000e+02 6.456109669146259692e-04
3.380000000000000000e+02 6.460513947216684622e-04
3.390000000000000000e+02 6.464910594670145519e-04
3.400000000000000000e+02 6.469299639266915848e-04
3.410000000000000000e+02 6.473681108615737725e-04
3.420000000000000000e+02 6.478055030174868171e-04
3.430000000000000000e+02 6.482421431253118866e-04
3.440000000000000000e+02 6.486780339010874211e-04
3.450000000000000000e+02 6.491131780461127827e-04
3.460000000000000000e+02 6.495475782470483276e-04
3.470000000000000000e+02 6.499812371760168867e-04
3.480000000000000000e+02 6.504141574907028626e-04
3.490000000000000000e+02 6.508463418344518671e-04
3.500000000000000000e+02 6.512777928363687333e-04
3.510000000000000000e+02 6.517085131114156360e-04
3.520000000000000000e+02 6.521385052605081518e-04
3.530000000000000000e+02 6.525677718706114280e-04
3.540000000000000000e+02 6.529963155148366767e-04
3.550000000000000000e+02 6.534241387525338736e-04
3.560000000000000000e+02 6.538512441293877105e-04
3.570000000000000000e+02 6.542776341775092099e-04
3.580000000000000000e+02 6.547033114155291836e-04
3.590000000000000000e+02 6.551282783486891970e-04
3.600000000000000000e+02 6.555525374689337263e-04
3.610000000000000000e+02 6.559760912549988466e-04
3.620000000000000000e+02 6.563989421725041715e-04
3.630000000000000000e+02 6.568210926740391566e-04
3.640000000000000000e+02 6.572425451992542798e-04
3.650000000000000000e+02 6.576633021749458269e-04
3.660000000000000000e+02 6.580833660151453376e-04
3.670000000000000000e+02 6.585027391212039567e-04
3.680000000000000000e+02 6.589214238818789536e-04
3.690000000000000000e+02 6.593394226734189401e-04
3.700000000000000000e+02 6.597567378596473544e-04
3.710000000000000000e+02 6.601733717920464867e-04
3.720000000000000000e+02 6.605893268098406374e-04
3.730000000000000000e+02 6.610046052400782995e-04
3.740000000000000000e+02 6.614192093977140164e-04
3.750000000000000000e+02 6.618331415856892625e-04
3.760000000000000000e+02 6.622464040950127835e-04
3.770000000000000000e+02 6.626589992048411521e-04
3.780000000000000000e+02 6.630709291825570475e-04
3.790000000000000000e+02 6.634821962838485104e-04
3.800000000000000000e+02 6.638928027527866808e-04
3.810000000000000000e+02 6.643027508219039685e-04
3.820000000000000000e+02 6.647120427122687547e-04
3.830000000000000000e+02 6.651206806335644307e-04
3.840000000000000000e+02 6.655286667841627977e-04
3.850000000000000000e+02 6.659360033512005039e-04
3.860000000000000000e+02 6.663426925106523359e-04
3.870000000000000000e+02 6.667487364274060288e-04
3.880000000000000000e+02 6.671541372553355586e-04
3.890000000000000000e+02 6.675588971373731329e-04
3.900000000000000000e+02 6.679630182055821576e-04
3.910000000000000000e+02 6.683665025812282525e-04
3.920000000000000000e+02 6.687693523748511337e-04
3.930000000000000000e+02 6.691715696863342194e-04
3.940000000000000000e+02 6.695731566049751031e-04
3.950000000000000000e+02 6.699741152095554843e-04
