# 5 301
# Pressure, Entropy, Quantity
# column * scaling factor should be SI units
# scaling factors (constant) for each column given on line below
# 55692628932.82327 2993.025100070677
0.000000000000000000e+00 5.912005944767064758e-01
8.977848767080154682e-03 6.016033760863341850e-01
1.795569753416030936e-02 6.111287885450150670e-01
2.693354630124046578e-02 6.202604332673412602e-01
3.591139506832061873e-02 6.294433940376069625e-01
4.488924383540077861e-02 6.390671990588249196e-01
5.386709260248093156e-02 6.489543926295989751e-01
6.284494136956109145e-02 6.588035281946167387e-01
7.182279013664123746e-02 6.682736395591419853e-01
8.080063890372139734e-02 6.773505903033189002e-01
8.977848767080155723e-02 6.862333069019168619e-01
9.875633643788170324e-02 6.948981972447826339e-01
1.077341852049618631e-01 7.033064641063881961e-01
1.167120339720420230e-01 7.114795499252795086e-01
1.256898827391221829e-01 7.194517445871989603e-01
1.346677315062023150e-01 7.272104797465615000e-01
1.436455802732824749e-01 7.347531034890255608e-01
1.526234290403626348e-01 7.420826980105815762e-01
1.616012778074427947e-01 7.492172634480953608e-01
1.705791265745229546e-01 7.561543563594604889e-01
1.795569753416031145e-01 7.628818270628534570e-01
1.885348241086832466e-01 7.694054140946675613e-01
1.975126728757634065e-01 7.757318461689424183e-01
2.064905216428435664e-01 7.818496555703459139e-01
2.154683704099237262e-01 7.877545632460263292e-01
2.244462191770038861e-01 7.934404928601086482e-01
2.334240679440840460e-01 7.989088924367508948e-01
2.424019167111641782e-01 8.041478233013328314e-01
2.513797654782443658e-01 8.091473694786854853e-01
2.603576142453244979e-01 8.139021793320704301e-01
2.693354630124046301e-01 8.184091253253564791e-01
2.783133117794848177e-01 8.226593418102832178e-01
2.872911605465649498e-01 8.266466868294526371e-01
2.962690093136451375e-01 8.303688272006464199e-01
3.052468580807252696e-01 8.338291007972231661e-01
3.142247068478054572e-01 8.370259857282253968e-01
3.232025556148855894e-01 8.399640412802986678e-01
3.321804043819657215e-01 8.426525341960958704e-01
3.411582531490459091e-01 8.451031664921114794e-01
3.501361019161260413e-01 8.473285686770504199e-01
3.591139506832062289e-01 8.493435059429277345e-01
3.680917994502863611e-01 8.511666442954095579e-01
3.770696482173664932e-01 8.528178914582559278e-01
3.860474969844466808e-01 8.543159914418012590e-01
3.950253457515268130e-01 8.556799341077254706e-01
4.040031945186070006e-01 8.569299410404280781e-01
4.129810432856871327e-01 8.580856002704216889e-01
4.219588920527673204e-01 8.591638651910262769e-01
4.309367408198474525e-01 8.601790948435898976e-01
4.399145895869275846e-01 8.611464302535730697e-01
4.488924383540077723e-01 8.620790228532944077e-01
4.578702871210879044e-01 8.629870570907487437e-01
4.668481358881680920e-01 8.638787246818443455e-01
4.758259846552482242e-01 8.647620707597019063e-01
4.848038334223283563e-01 8.656437855189218489e-01
4.937816821894085439e-01 8.665280684386411636e-01
5.027595309564887316e-01 8.674179164230135797e-01
5.117373797235688082e-01 8.683163112597345190e-01
5.207152284906489959e-01 8.692255293947817041e-01
5.296930772577291835e-01 8.701462202259862000e-01
5.386709260248092601e-01 8.710785418946334069e-01
5.476487747918894478e-01 8.720230116823642907e-01
5.566266235589696354e-01 8.729800828611617991e-01
5.656044723260498230e-01 8.739486950116399644e-01
5.745823210931298997e-01 8.749279746573708216e-01
5.835601698602100873e-01 8.759174521055115292e-01
5.925380186272902749e-01 8.769166832587269589e-01
6.015158673943703516e-01 8.779242205894712825e-01
6.104937161614505392e-01 8.789389569935825985e-01
6.194715649285307268e-01 8.799602000762112297e-01
6.284494136956109145e-01 8.809876177357811589e-01
6.374272624626909911e-01 8.820198003636212647e-01
6.464051112297711787e-01 8.830557897600788131e-01
6.553829599968513664e-01 8.840950576695509877e-01
6.643608087639314430e-01 8.851371270074088748e-01
6.733386575310116307e-01 8.861809143580540171e-01
6.823165062980918183e-01 8.872256122313145754e-01
6.912943550651720059e-01 8.882708298630404009e-01
7.002722038322520826e-01 8.893165164444005732e-01
7.092500525993322702e-01 8.903616861680581085e-01
7.182279013664124578e-01 8.914058565705262893e-01
7.272057501334925345e-01 8.924487973759267501e-01
7.361835989005727221e-01 8.934902420155930169e-01
7.451614476676529097e-01 8.945296855350612919e-01
7.541392964347329864e-01 8.955665696138772613e-01
7.631171452018131740e-01 8.966008481097964555e-01
7.720949939688933616e-01 8.976326686572002611e-01
7.810728427359735493e-01 8.986613899905139258e-01
7.900506915030536259e-01 8.996868201804582021e-01
7.990285402701338136e-01 9.007088624667813903e-01
8.080063890372140012e-01 9.017274181543877276e-01
8.169842378042940778e-01 9.027423357561692452e-01
8.259620865713742655e-01 9.037531460730425792e-01
8.349399353384544531e-01 9.047600043647743284e-01
8.439177841055346407e-01 9.057631044528152708e-01
8.528956328726147174e-01 9.067620422095563626e-01
8.618734816396949050e-01 9.077567220004653104e-01
8.708513304067750926e-01 9.087470832561481693e-01
8.798291791738551693e-01 9.097331489473412525e-01
8.888070279409353569e-01 9.107149229756289488e-01
8.977848767080155445e-01 9.116919730473573846e-01
9.067627254750957322e-01 9.126645458618504181e-01
9.157405742421758088e-01 9.136328179243971004e-01
9.247184230092559964e-01 9.145965280775972817e-01
9.336962717763361841e-01 9.155555991077770628e-01
9.426741205434162607e-01 9.165099958616862441e-01
9.516519693104964484e-01 9.174597944680499273e-01
9.606298180775766360e-01 9.184050550922229217e-01
9.696076668446567126e-01 9.193453808540843486e-01
9.785855156117369003e-01 9.202810448268367027e-01
9.875633643788170879e-01 9.212122007025703718e-01
9.965412131458972755e-01 9.221386566153644271e-01
1.005519061912977463e+00 9.230603518069354640e-01
1.014496910680057651e+00 9.239772644812864755e-01
1.023474759447137616e+00 9.248894794893384175e-01
1.032452608214217804e+00 9.257970802924651021e-01
1.041430456981297992e+00 9.266997026246284186e-01
1.050408305748378179e+00 9.275976124463986006e-01
1.059386154515458367e+00 9.284909622734021095e-01
1.068364003282538555e+00 9.293795686893875363e-01
1.077341852049618520e+00 9.302634132602829453e-01
1.086319700816698708e+00 9.311424751146184509e-01
1.095297549583778896e+00 9.320168208591923520e-01
1.104275398350859083e+00 9.328865452301735584e-01
1.113253247117939271e+00 9.337513199637528238e-01
1.122231095885019458e+00 9.346113823536128518e-01
1.131208944652099646e+00 9.354669116583460564e-01
1.140186793419179612e+00 9.363176836878919218e-01
1.149164642186259799e+00 9.371637413608848721e-01
1.158142490953339987e+00 9.380050772343010435e-01
1.167120339720420175e+00 9.388417185764055262e-01
1.176098188487500362e+00 9.396737442840855659e-01
1.185076037254580550e+00 9.405008943662134246e-01
1.194053886021660738e+00 9.413233514572162397e-01
1.203031734788740703e+00 9.421413393397477520e-01
1.212009583555820891e+00 9.429545679661980317e-01
1.220987432322901078e+00 9.437631313129863919e-01
1.229965281089981266e+00 9.445670732911101153e-01
1.238943129857061454e+00 9.453663819757789355e-01
1.247920978624141641e+00 9.461610612579783863e-01
1.256898827391221829e+00 9.469509848207400271e-01
1.265876676158301795e+00 9.477362389244363694e-01
1.274854524925381982e+00 9.485170768209527647e-01
1.283832373692462170e+00 9.492932009859205156e-01
1.292810222459542357e+00 9.500646856802219542e-01
1.301788071226622545e+00 9.508316186127594438e-01
1.310765919993702733e+00 9.515940505065252353e-01
1.319743768760782920e+00 9.523518375292434612e-01
1.328721617527862886e+00 9.531050116718443599e-01
1.337699466294943074e+00 9.538535412158239968e-01
1.346677315062023261e+00 9.545976509223168538e-01
1.355655163829103449e+00 9.553371897062836737e-01
1.364633012596183637e+00 9.560720764602179678e-01
1.373610861363263824e+00 9.568024961652936700e-01
1.382588710130344012e+00 9.575284253718534533e-01
1.391566558897423977e+00 9.582498893020503505e-01
1.400544407664504165e+00 9.589667580918037615e-01
1.409522256431584353e+00 9.596790744714375210e-01
1.418500105198664540e+00 9.603869261929682821e-01
1.427477953965744728e+00 9.610903873741127867e-01
1.436455802732824916e+00 9.617891881297440104e-01
1.445433651499904881e+00 9.624835355462604269e-01
1.454411500266985069e+00 9.631735403359227288e-01
1.463389349034065257e+00 9.638590435875348250e-01
1.472367197801145444e+00 9.645400970240720628e-01
1.481345046568225632e+00 9.652167104789338703e-01
1.490322895335305819e+00 9.658888848933966376e-01
1.499300744102386007e+00 9.665566558158588117e-01
1.508278592869465973e+00 9.672199052590697566e-01
1.517256441636546160e+00 9.678787027931544662e-01
1.526234290403626348e+00 9.685332538745796693e-01
1.535212139170706536e+00 9.691833246920338318e-01
1.544189987937786723e+00 9.698289520628731175e-01
1.553167836704866911e+00 9.704702425865392446e-01
1.562145685471947099e+00 9.711071970432491041e-01
1.571123534239027064e+00 9.717397972630319458e-01
1.580101383006107252e+00 9.723679723959861576e-01
1.589079231773187439e+00 9.729917448241759415e-01
1.598057080540267627e+00 9.736111931637735362e-01
1.607034929307347815e+00 9.742263890529548886e-01
1.616012778074428002e+00 9.748370861187979353e-01
1.624990626841508190e+00 9.754434607418323022e-01
1.633968475608588156e+00 9.760456425216086362e-01
1.642946324375668343e+00 9.766434334722611244e-01
1.651924173142748531e+00 9.772369104155749220e-01
1.660902021909828719e+00 9.778261061508374263e-01
1.669879870676908906e+00 9.784110247692404672e-01
1.678857719443989094e+00 9.789916158272111701e-01
1.687835568211069281e+00 9.795679015261911093e-01
1.696813416978149247e+00 9.801398443042661501e-01
1.705791265745229435e+00 9.807075867717438555e-01
1.714769114512309622e+00 9.812710954088905702e-01
1.723746963279389810e+00 9.818302164914441965e-01
1.732724812046469998e+00 9.823851106615418827e-01
1.741702660813550185e+00 9.829358203389084725e-01
1.750680509580630373e+00 9.834822602278485704e-01
1.759658358347710339e+00 9.840244563951009438e-01
1.768636207114790526e+00 9.845624210268185683e-01
1.777614055881870714e+00 9.850961545978513811e-01
1.786591904648950901e+00 9.856256558480672725e-01
1.795569753416031089e+00 9.861509006404172162e-01
1.804547602183111277e+00 9.866718787807731150e-01
1.813525450950191464e+00 9.871887288318711429e-01
1.822503299717271430e+00 9.877013885641253710e-01
1.831481148484351618e+00 9.882097389087519668e-01
1.840458997251431805e+00 9.887139206695987337e-01
1.849436846018511993e+00 9.892139738465294263e-01
1.858414694785592181e+00 9.897098113382222229e-01
1.867392543552672368e+00 9.902014613694132272e-01
1.876370392319752334e+00 9.906889422411777613e-01
1.885348241086832521e+00 9.911722539383724939e-01
1.894326089853912709e+00 9.916513713329926372e-01
1.903303938620992897e+00 9.921263106917322938e-01
1.912281787388073084e+00 9.925970327343154320e-01
1.921259636155153272e+00 9.930636415639009229e-01
1.930237484922233460e+00 9.935261557344311489e-01
1.939215333689313425e+00 9.939843880825981470e-01
1.948193182456393613e+00 9.944384774397840854e-01
1.957171031223473801e+00 9.948885353734286952e-01
1.966148879990553988e+00 9.953343738948613462e-01
1.975126728757634176e+00 9.957760618505584471e-01
1.984104577524714363e+00 9.962136331095885478e-01
1.993082426291794551e+00 9.966470994289152729e-01
2.002060275058874517e+00 9.970764328425909540e-01
2.011038123825954926e+00 9.975016053801053495e-01
2.020015972593034892e+00 9.979226275396345658e-01
2.028993821360115302e+00 9.983395319849874827e-01
2.037971670127195267e+00 9.987523824939211758e-01
2.046949518894275233e+00 9.991610087199306323e-01
2.055927367661355643e+00 9.995655021041371935e-01
2.064905216428435608e+00 9.999659875003972243e-01
2.073883065195516018e+00 1.000362322990975494e+00
2.082860913962595983e+00 1.000754481562686315e+00
2.091838762729675949e+00 1.001142557805258626e+00
2.100816611496756359e+00 1.001526577867268619e+00
2.109794460263836324e+00 1.001906463536328840e+00
2.118772309030916734e+00 1.002282238417208315e+00
2.127750157797996700e+00 1.002653919693907270e+00
2.136728006565077109e+00 1.003021524991932756e+00
2.145705855332157075e+00 1.003385011532512472e+00
2.154683704099237040e+00 1.003744384239943388e+00
2.163661552866317450e+00 1.004099632132350983e+00
2.172639401633397416e+00 1.004450791504982732e+00
2.181617250400477825e+00 1.004797919098909365e+00
2.190595099167557791e+00 1.005140854024031638e+00
2.199572947934638201e+00 1.005479678291644863e+00
2.208550796701718166e+00 1.005814491981127379e+00
2.217528645468798132e+00 1.006145206450902219e+00
2.226506494235878542e+00 1.006471744536761026e+00
2.235484343002958507e+00 1.006794197793925871e+00
2.244462191770038917e+00 1.007112650474244919e+00
2.253440040537118882e+00 1.007426942220661203e+00
2.262417889304199292e+00 1.007737125757414809e+00
2.271395738071279258e+00 1.008043240137449725e+00
2.280373586838359223e+00 1.008345259628665724e+00
2.289351435605439633e+00 1.008643196613275617e+00
2.298329284372519599e+00 1.008937024699292806e+00
2.307307133139600008e+00 1.009226749015235569e+00
2.316284981906679974e+00 1.009512380675736232e+00
2.325262830673760384e+00 1.009793900886162499e+00
2.334240679440840349e+00 1.010071323972498103e+00
2.343218528207920315e+00 1.010344609056219145e+00
2.352196376975000724e+00 1.010613806113513702e+00
2.361174225742080690e+00 1.010878966879305452e+00
2.370152074509161100e+00 1.011139923514909444e+00
2.379129923276241065e+00 1.011396761280302981e+00
2.388107772043321475e+00 1.011649556967387564e+00
2.397085620810401441e+00 1.011898259397162825e+00
2.406063469577481406e+00 1.012142757804249449e+00
2.415041318344561816e+00 1.012383141126496966e+00
2.424019167111641782e+00 1.012619514538901644e+00
2.432997015878722191e+00 1.012851694315954898e+00
2.441974864645802157e+00 1.013079722339557343e+00
2.450952713412882567e+00 1.013303650395782629e+00
2.459930562179962532e+00 1.013523475795157225e+00
2.468908410947042498e+00 1.013739148232682297e+00
2.477886259714122907e+00 1.013950674285771569e+00
2.486864108481202873e+00 1.014158075301018869e+00
2.495841957248283283e+00 1.014361339476086865e+00
2.504819806015363248e+00 1.014560465837561765e+00
2.513797654782443658e+00 1.014755433047846989e+00
2.522775503549523624e+00 1.014946246636283300e+00
2.531753352316603589e+00 1.015132913233609546e+00
2.540731201083683999e+00 1.015315412503329018e+00
2.549709049850763964e+00 1.015493742984267422e+00
2.558686898617844374e+00 1.015667891861645966e+00
2.567664747384924340e+00 1.015837878799770611e+00
2.576642596152004749e+00 1.016003698019321888e+00
2.585620444919084715e+00 1.016165327463883772e+00
2.594598293686164681e+00 1.016322741515507833e+00
2.603576142453245090e+00 1.016475982271082712e+00
2.612553991220325056e+00 1.016625088060832738e+00
2.621531839987405466e+00 1.016769913040887374e+00
2.630509688754485431e+00 1.016910521880251661e+00
2.639487537521565841e+00 1.017046954877539378e+00
2.648465386288645806e+00 1.017179234088512629e+00
2.657443235055725772e+00 1.017307188888627367e+00
2.666421083822806182e+00 1.017430913300124029e+00
2.675398932589886147e+00 1.017550468896277982e+00
2.684376781356966557e+00 1.017665802907039119e+00
2.693354630124046523e+00 1.017776806886250274e+00
